Time (min)	Value (mAU)
0	0
0.001667	0.000103
0.003333	0.000563
0.005	0.001464
0.006667	0.002626
0.008333	0.003916
0.01	0.005226
0.011667	0.006406
0.013333	0.007418
0.015	0.008364
0.016667	0.009505
0.018333	0.011017
0.02	0.012505
0.021667	0.01323
0.023333	0.012935
0.025	0.012105
0.026667	0.011578
0.028333	0.012115
0.03	0.013829
0.031667	0.015691
0.033333	0.016261
0.035	0.015271
0.036667	0.013728
0.038333	0.012384
0.04	0.011106
0.041667	0.009749
0.043333	0.008605
0.045	0.007858
0.046667	0.007299
0.048333	0.006846
0.05	0.006725
0.051667	0.006889
0.053333	0.00714
0.055	0.007805
0.056667	0.0095
0.058333	0.012257
0.06	0.015287
0.061667	0.017916
0.063333	0.020471
0.065	0.023657
0.066667	0.027677
0.068333	0.032421
0.07	0.037382
0.071667	0.040942
0.073333	0.041184
0.075	0.038016
0.076667	0.033326
0.078333	0.02886
0.08	0.025265
0.081667	0.023171
0.083333	0.023455
0.085	0.025951
0.086667	0.029008
0.088333	0.030649
0.09	0.029694
0.091667	0.026159
0.093333	0.021299
0.095	0.017144
0.096667	0.015547
0.098333	0.017303
0.1	0.021751
0.101667	0.027111
0.103333	0.0314
0.105	0.033503
0.106667	0.033595
0.108333	0.032407
0.11	0.030555
0.111667	0.028696
0.113333	0.02757
0.115	0.027576
0.116667	0.028307
0.118333	0.028656
0.12	0.027848
0.121667	0.026155
0.123333	0.02396
0.125	0.021127
0.126667	0.018027
0.128333	0.015991
0.13	0.016259
0.131667	0.018837
0.133333	0.022254
0.135	0.024621
0.136667	0.025153
0.138333	0.024374
0.14	0.023177
0.141667	0.022354
0.143333	0.022507
0.145	0.023498
0.146667	0.024111
0.148333	0.022955
0.15	0.019868
0.151667	0.016148
0.153333	0.013253
0.155	0.011663
0.156667	0.010973
0.158333	0.010533
0.16	0.010189
0.161667	0.010431
0.163333	0.011513
0.165	0.012945
0.166667	0.014304
0.168333	0.01591
0.17	0.018314
0.171667	0.021532
0.173333	0.024885
0.175	0.027272
0.176667	0.027835
0.178333	0.026623
0.18	0.024474
0.181667	0.022322
0.183333	0.020855
0.185	0.020267
0.186667	0.020049
0.188333	0.019626
0.19	0.018885
0.191667	0.017543
0.193333	0.015231
0.195	0.012677
0.196667	0.011288
0.198333	0.011589
0.2	0.013063
0.201667	0.014959
0.203333	0.016705
0.205	0.017873
0.206667	0.017981
0.208333	0.016423
0.21	0.013305
0.211667	0.010305
0.213333	0.009285
0.215	0.010502
0.216667	0.013122
0.218333	0.016322
0.22	0.019503
0.221667	0.022305
0.223333	0.02475
0.225	0.026938
0.226667	0.028311
0.228333	0.027923
0.23	0.02553
0.231667	0.021893
0.233333	0.018125
0.235	0.01497
0.236667	0.012873
0.238333	0.01217
0.24	0.012461
0.241667	0.012544
0.243333	0.011637
0.245	0.010272
0.246667	0.009609
0.248333	0.010079
0.25	0.011198
0.251667	0.012286
0.253333	0.012641
0.255	0.011627
0.256667	0.00931
0.258333	0.00669
0.26	0.004982
0.261667	0.004966
0.263333	0.007039
0.265	0.011132
0.266667	0.016192
0.268333	0.020243
0.27	0.021398
0.271667	0.019099
0.273333	0.014671
0.275	0.010535
0.276667	0.008578
0.278333	0.008998
0.28	0.01051
0.281667	0.011638
0.283333	0.011739
0.285	0.01082
0.286667	0.00897
0.288333	0.006447
0.29	0.003915
0.291667	0.002077
0.293333	0.001214
0.295	0.001282
0.296667	0.002099
0.298333	0.003404
0.3	0.004999
0.301667	0.006636
0.303333	0.007792
0.305	0.008109
0.306667	0.007939
0.308333	0.00797
0.31	0.008654
0.311667	0.010234
0.313333	0.012709
0.315	0.01532
0.316667	0.016757
0.318333	0.016444
0.32	0.014876
0.321667	0.012641
0.323333	0.009978
0.325	0.007042
0.326667	0.004019
0.328333	0.001452
0.33	0.000337
0.331667	0.001105
0.333333	0.003009
0.335	0.005091
0.336667	0.007138
0.338333	0.009377
0.34	0.011784
0.341667	0.013866
0.343333	0.014813
0.345	0.014386
0.346667	0.013476
0.348333	0.012933
0.35	0.012438
0.351667	0.011207
0.353333	0.009327
0.355	0.007786
0.356667	0.007221
0.358333	0.007359
0.36	0.007784
0.361667	0.008604
0.363333	0.010064
0.365	0.011695
0.366667	0.012365
0.368333	0.011356
0.37	0.009334
0.371667	0.007898
0.373333	0.007902
0.375	0.009024
0.376667	0.01072
0.378333	0.012469
0.38	0.013809
0.381667	0.014488
0.383333	0.014257
0.385	0.01332
0.386667	0.01251
0.388333	0.012121
0.39	0.011587
0.391667	0.010566
0.393333	0.009049
0.395	0.006719
0.396667	0.003356
0.398333	-0.000703
0.4	-0.005079
0.401667	-0.009408
0.403333	-0.012738
0.405	-0.013736
0.406667	-0.011719
0.408333	-0.007473
0.41	-0.002787
0.411667	0.001257
0.413333	0.005062
0.415	0.009273
0.416667	0.013674
0.418333	0.017606
0.42	0.020599
0.421667	0.022441
0.423333	0.023022
0.425	0.02227
0.426667	0.020537
0.428333	0.018726
0.43	0.017366
0.431667	0.016049
0.433333	0.014153
0.435	0.011738
0.436667	0.009284
0.438333	0.006676
0.44	0.003316
0.441667	-0.000942
0.443333	-0.00551
0.445	-0.00932
0.446667	-0.011265
0.448333	-0.011037
0.45	-0.009523
0.451667	-0.007799
0.453333	-0.006171
0.455	-0.004793
0.456667	-0.004304
0.458333	-0.004928
0.46	-0.005789
0.461667	-0.006066
0.463333	-0.005965
0.465	-0.006279
0.466667	-0.007514
0.468333	-0.009076
0.47	-0.009722
0.471667	-0.009146
0.473333	-0.008017
0.475	-0.00669
0.476667	-0.004897
0.478333	-0.00235
0.48	0.000648
0.481667	0.002902
0.483333	0.002944
0.485	0.000199
0.486667	-0.004528
0.488333	-0.009439
0.49	-0.012735
0.491667	-0.013629
0.493333	-0.012622
0.495	-0.010945
0.496667	-0.009428
0.498333	-0.008413
0.5	-0.008484
0.501667	-0.009527
0.503333	-0.009852
0.505	-0.007987
0.506667	-0.004414
0.508333	-0.00082
0.51	0.00147
0.511667	0.00222
0.513333	0.002131
0.515	0.002168
0.516667	0.002891
0.518333	0.004047
0.52	0.004872
0.521667	0.005076
0.523333	0.004885
0.525	0.004532
0.526667	0.004147
0.528333	0.003087
0.53	-0.000194
0.531667	-0.006336
0.533333	-0.013646
0.535	-0.018905
0.536667	-0.019679
0.538333	-0.016312
0.54	-0.011575
0.541667	-0.008102
0.543333	-0.006504
0.545	-0.005946
0.546667	-0.00555
0.548333	-0.004915
0.55	-0.004307
0.551667	-0.00443
0.553333	-0.005398
0.555	-0.006312
0.556667	-0.006331
0.558333	-0.005611
0.56	-0.004901
0.561667	-0.004918
0.563333	-0.005942
0.565	-0.007276
0.566667	-0.007424
0.568333	-0.005588
0.57	-0.002671
0.571667	-0.000301
0.573333	0.000581
0.575	0.000043
0.576667	-0.001189
0.578333	-0.002365
0.58	-0.002997
0.581667	-0.002784
0.583333	-0.002031
0.585	-0.001584
0.586667	-0.001663
0.588333	-0.001333
0.59	0.000763
0.591667	0.005141
0.593333	0.010525
0.595	0.014507
0.596667	0.015448
0.598333	0.013472
0.6	0.009882
0.601667	0.006257
0.603333	0.003922
0.605	0.003158
0.606667	0.002949
0.608333	0.002252
0.61	0.000976
0.611667	-0.000547
0.613333	-0.001988
0.615	-0.00294
0.616667	-0.003375
0.618333	-0.003874
0.62	-0.004831
0.621667	-0.005903
0.623333	-0.006479
0.625	-0.006441
0.626667	-0.006242
0.628333	-0.006085
0.63	-0.00562
0.631667	-0.004794
0.633333	-0.003974
0.635	-0.002979
0.636667	-0.000995
0.638333	0.002275
0.64	0.005824
0.641667	0.007984
0.643333	0.007858
0.645	0.005877
0.646667	0.002918
0.648333	-0.000653
0.65	-0.005029
0.651667	-0.010201
0.653333	-0.015411
0.655	-0.019814
0.656667	-0.022929
0.658333	-0.024032
0.66	-0.022372
0.661667	-0.018206
0.663333	-0.01282
0.665	-0.007902
0.666667	-0.005048
0.668333	-0.004999
0.67	-0.007151
0.671667	-0.010253
0.673333	-0.013455
0.675	-0.016391
0.676667	-0.018597
0.678333	-0.019344
0.68	-0.018043
0.681667	-0.014967
0.683333	-0.011463
0.685	-0.008931
0.686667	-0.00783
0.688333	-0.008111
0.69	-0.009697
0.691667	-0.012098
0.693333	-0.014531
0.695	-0.016466
0.696667	-0.017699
0.698333	-0.018173
0.7	-0.017625
0.701667	-0.015758
0.703333	-0.013013
0.705	-0.010496
0.706667	-0.009201
0.708333	-0.009831
0.71	-0.012762
0.711667	-0.017367
0.713333	-0.021957
0.715	-0.024989
0.716667	-0.026033
0.718333	-0.025367
0.72	-0.023249
0.721667	-0.020106
0.723333	-0.016926
0.725	-0.014957
0.726667	-0.014975
0.728333	-0.016612
0.73	-0.018458
0.731667	-0.019147
0.733333	-0.018102
0.735	-0.01536
0.736667	-0.011619
0.738333	-0.008367
0.74	-0.006899
0.741667	-0.007361
0.743333	-0.009092
0.745	-0.011017
0.746667	-0.011643
0.748333	-0.010052
0.75	-0.007096
0.751667	-0.004731
0.753333	-0.004317
0.755	-0.005707
0.756667	-0.00762
0.758333	-0.008955
0.76	-0.009524
0.761667	-0.009615
0.763333	-0.009762
0.765	-0.010702
0.766667	-0.012466
0.768333	-0.013958
0.77	-0.014146
0.771667	-0.013093
0.773333	-0.011702
0.775	-0.010993
0.776667	-0.011695
0.778333	-0.013876
0.78	-0.016706
0.781667	-0.019095
0.783333	-0.020249
0.785	-0.01955
0.786667	-0.016963
0.788333	-0.01337
0.79	-0.010124
0.791667	-0.00845
0.793333	-0.008484
0.795	-0.009
0.796667	-0.008763
0.798333	-0.007689
0.8	-0.006444
0.801667	-0.005748
0.803333	-0.006296
0.805	-0.008521
0.806667	-0.012025
0.808333	-0.015632
0.81	-0.018003
0.811667	-0.018395
0.813333	-0.017295
0.815	-0.016039
0.816667	-0.015728
0.818333	-0.016579
0.82	-0.017935
0.821667	-0.018943
0.823333	-0.019197
0.825	-0.018589
0.826667	-0.017187
0.828333	-0.015525
0.83	-0.014369
0.831667	-0.01397
0.833333	-0.01386
0.835	-0.013329
0.836667	-0.011967
0.838333	-0.009998
0.84	-0.008069
0.841667	-0.00662
0.843333	-0.005684
0.845	-0.005293
0.846667	-0.005692
0.848333	-0.006912
0.85	-0.008351
0.851667	-0.009159
0.853333	-0.008956
0.855	-0.008095
0.856667	-0.007416
0.858333	-0.007642
0.86	-0.008633
0.861667	-0.009333
0.863333	-0.009007
0.865	-0.008154
0.866667	-0.007485
0.868333	-0.006865
0.87	-0.006041
0.871667	-0.005424
0.873333	-0.00571
0.875	-0.007131
0.876667	-0.009115
0.878333	-0.010661
0.88	-0.010828
0.881667	-0.009006
0.883333	-0.005695
0.885	-0.002548
0.886667	-0.000834
0.888333	-0.000499
0.89	-0.000784
0.891667	-0.001226
0.893333	-0.002073
0.895	-0.003778
0.896667	-0.006405
0.898333	-0.009444
0.9	-0.012065
0.901667	-0.013794
0.903333	-0.014474
0.905	-0.013779
0.906667	-0.011782
0.908333	-0.009705
0.91	-0.009195
0.911667	-0.010774
0.913333	-0.013292
0.915	-0.015107
0.916667	-0.015702
0.918333	-0.016011
0.92	-0.017235
0.921667	-0.019712
0.923333	-0.022861
0.925	-0.025432
0.926667	-0.026035
0.928333	-0.024518
0.93	-0.022645
0.931667	-0.02246
0.933333	-0.024246
0.935	-0.026765
0.936667	-0.028601
0.938333	-0.028618
0.94	-0.026351
0.941667	-0.022537
0.943333	-0.018585
0.945	-0.015633
0.946667	-0.014463
0.948333	-0.01542
0.95	-0.017564
0.951667	-0.018783
0.953333	-0.017696
0.955	-0.014788
0.956667	-0.011615
0.958333	-0.009752
0.96	-0.010292
0.961667	-0.013562
0.963333	-0.018699
0.965	-0.023912
0.966667	-0.027874
0.968333	-0.030316
0.97	-0.031086
0.971667	-0.029833
0.973333	-0.026994
0.975	-0.02419
0.976667	-0.023051
0.978333	-0.023887
0.98	-0.025683
0.981667	-0.026917
0.983333	-0.026463
0.985	-0.02441
0.986667	-0.022023
0.988333	-0.020769
0.99	-0.021421
0.991667	-0.023682
0.993333	-0.026466
0.995	-0.028837
0.996667	-0.030467
0.998333	-0.031273
1	-0.031177
1.001667	-0.030163
1.003333	-0.028425
1.005	-0.026347
1.006667	-0.023949
1.008333	-0.021028
1.01	-0.01836
1.011667	-0.017344
1.013333	-0.018264
1.015	-0.020173
1.016667	-0.021807
1.018333	-0.021883
1.02	-0.019672
1.021667	-0.015803
1.023333	-0.012238
1.025	-0.011128
1.026667	-0.012875
1.028333	-0.015412
1.03	-0.016197
1.031667	-0.01448
1.033333	-0.011274
1.035	-0.008254
1.036667	-0.006947
1.038333	-0.007991
1.04	-0.010684
1.041667	-0.013432
1.043333	-0.014772
1.045	-0.014097
1.046667	-0.011965
1.048333	-0.009876
1.05	-0.0091
1.051667	-0.009821
1.053333	-0.011556
1.055	-0.013704
1.056667	-0.015936
1.058333	-0.018934
1.06	-0.024093
1.061667	-0.031792
1.063333	-0.040412
1.065	-0.047125
1.066667	-0.049484
1.068333	-0.046779
1.07	-0.040347
1.071667	-0.032411
1.073333	-0.024668
1.075	-0.018116
1.076667	-0.013726
1.078333	-0.012509
1.08	-0.014655
1.081667	-0.019038
1.083333	-0.023717
1.085	-0.026757
1.086667	-0.027299
1.088333	-0.026338
1.09	-0.025665
1.091667	-0.025779
1.093333	-0.025493
1.095	-0.023847
1.096667	-0.021568
1.098333	-0.020163
1.1	-0.020435
1.101667	-0.022257
1.103333	-0.025235
1.105	-0.02896
1.106667	-0.032659
1.108333	-0.035689
1.11	-0.038321
1.111667	-0.040957
1.113333	-0.042935
1.115	-0.043094
1.116667	-0.041157
1.118333	-0.03793
1.12	-0.034655
1.121667	-0.032099
1.123333	-0.029795
1.125	-0.026728
1.126667	-0.023084
1.128333	-0.020296
1.13	-0.019259
1.131667	-0.019972
1.133333	-0.022394
1.135	-0.025882
1.136667	-0.028994
1.138333	-0.030986
1.14	-0.031975
1.141667	-0.031703
1.143333	-0.030206
1.145	-0.028988
1.146667	-0.029541
1.148333	-0.031597
1.15	-0.033863
1.151667	-0.035345
1.153333	-0.035424
1.155	-0.033689
1.156667	-0.030216
1.158333	-0.025831
1.16	-0.021861
1.161667	-0.019409
1.163333	-0.01886
1.165	-0.019842
1.166667	-0.021515
1.168333	-0.023112
1.17	-0.024464
1.171667	-0.02625
1.173333	-0.029301
1.175	-0.033151
1.176667	-0.035943
1.178333	-0.03619
1.18	-0.034009
1.181667	-0.03062
1.183333	-0.02732
1.185	-0.024789
1.186667	-0.023061
1.188333	-0.022091
1.19	-0.022
1.191667	-0.022729
1.193333	-0.023888
1.195	-0.025084
1.196667	-0.026312
1.198333	-0.027765
1.2	-0.029244
1.201667	-0.030331
1.203333	-0.030955
1.205	-0.031193
1.206667	-0.031151
1.208333	-0.031353
1.21	-0.032279
1.211667	-0.033752
1.213333	-0.035427
1.215	-0.037185
1.216667	-0.038876
1.218333	-0.040249
1.22	-0.040914
1.221667	-0.040342
1.223333	-0.038436
1.225	-0.035802
1.226667	-0.033091
1.228333	-0.030538
1.23	-0.028235
1.231667	-0.026327
1.233333	-0.024882
1.235	-0.024185
1.236667	-0.02497
1.238333	-0.027316
1.24	-0.029778
1.241667	-0.030536
1.243333	-0.029283
1.245	-0.027385
1.246667	-0.026017
1.248333	-0.025172
1.25	-0.024404
1.251667	-0.023581
1.253333	-0.023105
1.255	-0.023141
1.256667	-0.023013
1.258333	-0.022181
1.26	-0.02094
1.261667	-0.019963
1.263333	-0.019846
1.265	-0.020997
1.266667	-0.023642
1.268333	-0.027574
1.27	-0.032136
1.271667	-0.03698
1.273333	-0.042165
1.275	-0.046895
1.276667	-0.048935
1.278333	-0.046309
1.28	-0.03942
1.281667	-0.030938
1.283333	-0.023701
1.285	-0.019218
1.286667	-0.017933
1.288333	-0.01971
1.29	-0.023877
1.291667	-0.029043
1.293333	-0.033097
1.295	-0.034442
1.296667	-0.033204
1.298333	-0.030817
1.3	-0.029025
1.301667	-0.029069
1.303333	-0.030923
1.305	-0.033421
1.306667	-0.035314
1.308333	-0.035981
1.31	-0.035666
1.311667	-0.035318
1.313333	-0.035534
1.315	-0.035995
1.316667	-0.036191
1.318333	-0.035831
1.32	-0.03477
1.321667	-0.033292
1.323333	-0.032269
1.325	-0.032784
1.326667	-0.035128
1.328333	-0.037759
1.33	-0.038453
1.331667	-0.037065
1.333333	-0.035809
1.335	-0.036729
1.336667	-0.039875
1.338333	-0.043663
1.34	-0.046291
1.341667	-0.047034
1.343333	-0.046602
1.345	-0.046248
1.346667	-0.046534
1.348333	-0.04703
1.35	-0.047088
1.351667	-0.046511
1.353333	-0.045223
1.355	-0.043008
1.356667	-0.040088
1.358333	-0.037117
1.36	-0.034566
1.361667	-0.032817
1.363333	-0.032423
1.365	-0.033811
1.366667	-0.036746
1.368333	-0.040118
1.37	-0.042719
1.371667	-0.044486
1.373333	-0.04643
1.375	-0.04913
1.376667	-0.052089
1.378333	-0.054579
1.38	-0.056102
1.381667	-0.056261
1.383333	-0.055012
1.385	-0.052893
1.386667	-0.050776
1.388333	-0.049184
1.39	-0.047617
1.391667	-0.045291
1.393333	-0.042302
1.395	-0.039212
1.396667	-0.036354
1.398333	-0.033902
1.4	-0.032021
1.401667	-0.031151
1.403333	-0.031778
1.405	-0.033484
1.406667	-0.035164
1.408333	-0.036632
1.41	-0.039234
1.411667	-0.044068
1.413333	-0.050008
1.415	-0.054557
1.416667	-0.056247
1.418333	-0.055341
1.42	-0.052892
1.421667	-0.049777
1.423333	-0.046432
1.425	-0.043307
1.426667	-0.041307
1.428333	-0.041452
1.43	-0.0441
1.431667	-0.048761
1.433333	-0.054391
1.435	-0.059589
1.436667	-0.063091
1.438333	-0.064456
1.44	-0.06401
1.441667	-0.06207
1.443333	-0.058616
1.445	-0.054078
1.446667	-0.049721
1.448333	-0.046312
1.45	-0.043578
1.451667	-0.041322
1.453333	-0.03934
1.455	-0.036965
1.456667	-0.034468
1.458333	-0.03369
1.46	-0.036125
1.461667	-0.04101
1.463333	-0.045521
1.465	-0.046847
1.466667	-0.044436
1.468333	-0.040294
1.47	-0.037097
1.471667	-0.036221
1.473333	-0.037243
1.475	-0.038514
1.476667	-0.038523
1.478333	-0.037367
1.48	-0.036454
1.481667	-0.036583
1.483333	-0.0372
1.485	-0.03759
1.486667	-0.037937
1.488333	-0.039307
1.49	-0.042789
1.491667	-0.048102
1.493333	-0.053179
1.495	-0.055472
1.496667	-0.053854
1.498333	-0.049582
1.5	-0.045277
1.501667	-0.042933
1.503333	-0.042969
1.505	-0.044667
1.506667	-0.046971
1.508333	-0.049041
1.51	-0.050603
1.511667	-0.051683
1.513333	-0.052058
1.515	-0.051342
1.516667	-0.049268
1.518333	-0.045803
1.52	-0.041756
1.521667	-0.03884
1.523333	-0.03829
1.525	-0.039809
1.526667	-0.042139
1.528333	-0.043945
1.53	-0.044243
1.531667	-0.043125
1.533333	-0.041865
1.535	-0.041676
1.536667	-0.042687
1.538333	-0.044239
1.54	-0.045956
1.541667	-0.048024
1.543333	-0.050362
1.545	-0.052385
1.546667	-0.0536
1.548333	-0.053873
1.55	-0.053314
1.551667	-0.051969
1.553333	-0.049633
1.555	-0.046418
1.556667	-0.043132
1.558333	-0.040455
1.56	-0.03841
1.561667	-0.037062
1.563333	-0.037121
1.565	-0.039466
1.566667	-0.043804
1.568333	-0.048044
1.57	-0.049961
1.571667	-0.049247
1.573333	-0.047136
1.575	-0.044894
1.576667	-0.043425
1.578333	-0.043145
1.58	-0.043816
1.581667	-0.045127
1.583333	-0.04719
1.585	-0.049998
1.586667	-0.052659
1.588333	-0.054006
1.59	-0.053963
1.591667	-0.05343
1.593333	-0.053006
1.595	-0.052687
1.596667	-0.052306
1.598333	-0.051375
1.6	-0.049112
1.601667	-0.04555
1.603333	-0.042231
1.605	-0.04099
1.606667	-0.042394
1.608333	-0.04569
1.61	-0.0495
1.611667	-0.052452
1.613333	-0.053819
1.615	-0.053609
1.616667	-0.052103
1.618333	-0.049714
1.62	-0.047072
1.621667	-0.044734
1.623333	-0.04299
1.625	-0.042242
1.626667	-0.042898
1.628333	-0.044842
1.63	-0.047619
1.631667	-0.050502
1.633333	-0.052359
1.635	-0.052305
1.636667	-0.050318
1.638333	-0.047228
1.64	-0.044179
1.641667	-0.041908
1.643333	-0.040552
1.645	-0.039794
1.646667	-0.039001
1.648333	-0.037651
1.65	-0.035938
1.651667	-0.034731
1.653333	-0.034618
1.655	-0.035377
1.656667	-0.036761
1.658333	-0.039009
1.66	-0.042012
1.661667	-0.045041
1.663333	-0.047531
1.665	-0.04941
1.666667	-0.050876
1.668333	-0.052081
1.67	-0.052843
1.671667	-0.052948
1.673333	-0.052525
1.675	-0.051882
1.676667	-0.051456
1.678333	-0.051805
1.68	-0.053259
1.681667	-0.05566
1.683333	-0.058305
1.685	-0.060368
1.686667	-0.061634
1.688333	-0.062284
1.69	-0.062043
1.691667	-0.060272
1.693333	-0.057081
1.695	-0.053962
1.696667	-0.05265
1.698333	-0.053414
1.7	-0.055232
1.701667	-0.057117
1.703333	-0.058209
1.705	-0.057594
1.706667	-0.05524
1.708333	-0.052246
1.71	-0.049938
1.711667	-0.049316
1.713333	-0.050894
1.715	-0.054279
1.716667	-0.057837
1.718333	-0.059453
1.72	-0.058297
1.721667	-0.055385
1.723333	-0.052015
1.725	-0.048527
1.726667	-0.045013
1.728333	-0.04225
1.73	-0.041154
1.731667	-0.042024
1.733333	-0.044705
1.735	-0.048676
1.736667	-0.052654
1.738333	-0.055041
1.74	-0.055353
1.741667	-0.05455
1.743333	-0.053796
1.745	-0.053279
1.746667	-0.052207
1.748333	-0.050027
1.75	-0.04732
1.751667	-0.045058
1.753333	-0.043607
1.755	-0.043063
1.756667	-0.043721
1.758333	-0.045736
1.76	-0.048789
1.761667	-0.051841
1.763333	-0.053332
1.765	-0.052339
1.766667	-0.049485
1.768333	-0.046305
1.77	-0.043813
1.771667	-0.042213
1.773333	-0.041585
1.775	-0.042101
1.776667	-0.043855
1.778333	-0.046821
1.78	-0.050785
1.781667	-0.054988
1.783333	-0.058479
1.785	-0.061086
1.786667	-0.062925
1.788333	-0.063667
1.79	-0.063325
1.791667	-0.062462
1.793333	-0.061293
1.795	-0.059784
1.796667	-0.058231
1.798333	-0.056793
1.8	-0.055187
1.801667	-0.0533
1.803333	-0.051445
1.805	-0.049884
1.806667	-0.048534
1.808333	-0.047339
1.81	-0.046649
1.811667	-0.046961
1.813333	-0.04835
1.815	-0.050527
1.816667	-0.053329
1.818333	-0.05642
1.82	-0.058967
1.821667	-0.060346
1.823333	-0.06073
1.825	-0.060757
1.826667	-0.060912
1.828333	-0.061087
1.83	-0.060663
1.831667	-0.059559
1.833333	-0.058793
1.835	-0.059013
1.836667	-0.059275
1.838333	-0.058212
1.84	-0.05539
1.841667	-0.05114
1.843333	-0.046143
1.845	-0.04145
1.846667	-0.03829
1.848333	-0.03754
1.85	-0.039397
1.851667	-0.043262
1.853333	-0.047775
1.855	-0.051402
1.856667	-0.053
1.858333	-0.051959
1.86	-0.048789
1.861667	-0.045518
1.863333	-0.044483
1.865	-0.046722
1.866667	-0.051415
1.868333	-0.056408
1.87	-0.059795
1.871667	-0.061225
1.873333	-0.061483
1.875	-0.061416
1.876667	-0.061415
1.878333	-0.061388
1.88	-0.061271
1.881667	-0.061442
1.883333	-0.062055
1.885	-0.062622
1.886667	-0.062762
1.888333	-0.062607
1.89	-0.062239
1.891667	-0.061361
1.893333	-0.059475
1.895	-0.056245
1.896667	-0.052074
1.898333	-0.048096
1.9	-0.045352
1.901667	-0.044242
1.903333	-0.04456
1.905	-0.045772
1.906667	-0.047166
